# Profile Compression settings. Method: Sum Points, using 1 datapoints
# Profile Smoothing is Disabled
#	total	HfO_2-	TiO_2-	AlO_2-	SiO_2-	
#	N/A	212.0111	79.9684	59.0045	59.9875	
#Sputter Time (s)	Intensity	Intensity(Background Corrected)	Intensity(Background Corrected)	Intensity(Background Corrected)	Intensity(Background Corrected)	
0	270115	34.0349	35.0374	1418.49	1493.98	
1	383296	40.0546	544.208	935.15	3292.11	
2	464098	86.2201	641.888	776.082	5384.56	
3	532548	118.45	887.206	756.127	7956.39	
4	581677	190.099	1298.88	717.375	10433	
5	607340	225.526	1716.09	670.415	12341.6	
6	626047	266.116	2350.44	643.372	13900.9	
7	638482	353.748	3120.15	712.034	15348.8	
8	649085	418.26	3939.93	604.828	16432.2	
9	635938	472.678	4563.01	590.356	16703.8	
10	641236	573.875	5493.05	595.563	17435.1	
11	627494	626.781	6082.35	510.755	17190.3	
12	635374	717.395	7370.05	562.407	18372.6	
13	621434	768.656	8030.76	490.109	18405.2	
14	612235	844.297	8722.09	467.514	18495	
15	599007	945.728	9260.65	441.818	18127.6	
16	592293	998.741	10171	411.036	18171.1	
17	591548	1057.22	11049.4	420.323	18412.1	
18	586517	1143.93	11861.6	418.238	18219.8	
19	583702	1225.69	12540.9	419.256	18029.9	
20	578977	1225.69	13138.4	392.596	18521	
21	578947	1414.3	13524.5	430.547	17835.1	
22	571746	1379.37	14015.6	390.566	17942.2	
23	570361	1471.11	14743.9	368.016	17376.7	
24	558218	1490.57	14926.4	350.701	16981.4	
25	558383	1559.88	15480.4	415.141	17217.3	
26	556519	1643.64	15824.2	364.97	16761.8	
27	557196	1803.66	16285.9	386.495	16711	
28	554259	1842.53	16633.8	386.498	16167.6	
29	550775	1870.67	16511	392.61	16189.4	
30	541825	1907.61	17208.1	349.682	15819.6	
31	543726	2033.06	17447.9	359.899	15977.6	
32	541846	2161.42	17651	379.313	15467.9	
33	534377	2087.45	17808.8	364.968	14926.9	
34	522294	2087.51	17233.7	340.48	14427.1	
35	524229	2150.08	17620.6	314.995	14009.7	
36	531160	2310.36	17867.3	319.082	13957.5	
37	522761	2309.2	18838	310.904	13862.9	
38	527361	2466.66	18643.8	362.96	13765.2	
39	517510	2469.99	18263.9	340.492	13200.9	
40	514638	2525.99	18593.3	341.512	13229.4	
41	516914	2676.03	19029.6	320.085	12761.9	
42	511722	2697.19	18606	322.129	12733.1	
43	503691	2645.43	18820.3	327.236	12359.3	
44	491574	2657.08	18627.4	343.567	11910	
45	500852	2946.7	18712.7	317.005	11841.8	
46	477693	2845.08	18018	308.88	10994.1	
47	487372	2929.8	18787.2	308.891	11248.1	
48	488818	3033.11	18713.7	269.178	11012.6	
49	477641	3023.36	18048.6	302.764	10546.9	
50	472258	3031.73	17966.5	283.427	10134	
51	480160	3113.8	18343	299.709	10015.7	
52	487227	3521.78	19000.9	296.654	10444.4	
53	492317	3651.18	19338.1	298.692	10265.8	
54	486190	3593.76	18878.4	288.517	10014.5	
55	483992	3639.79	18859.4	282.404	9808.13	
56	482316	3763.92	18692.3	283.423	9435.85	
57	488505	3859.94	19267.9	298.709	9593.29	
58	482951	3946.27	18954.3	283.425	9234.22	
59	471039	3863.65	18874.6	264.113	9119.38	
60	466015	3994.23	18730.8	246.845	8747.05	
61	464419	4018.92	18430.4	254.968	8360.69	
62	464226	4139.52	18570.2	273.257	8438.21	
63	470403	4264.3	18465.3	301.757	8236.19	
64	469611	4338.99	18389.2	269.191	7966.57	
65	462337	4336.05	18953.2	281.399	8032.68	
66	462517	4532.75	18546.8	295.641	7695.19	
67	450278	4337.4	17644.6	250.903	7348.5	
68	445262	4417.25	17938	268.178	7277.39	
69	445837	4423.59	17724	272.248	7054.35	
70	444824	4564.1	17709.3	255.988	6970.58	
71	439399	4738.29	17948.3	278.34	6725.48	
72	438909	4722.65	17549.9	284.454	6640.45	
73	442349	4837.74	17333	255.987	6373.81	
74	456952	5304.93	17886.2	263.096	6788.29	
75	449769	5305.13	17723.4	274.275	6517.75	
76	445997	5422.47	17465.6	247.852	6361.99	
77	442246	5456.48	16942.3	288.511	6253.53	
78	450353	5692.61	16988.1	230.608	6245	
79	438826	5466.36	17087.8	251.924	6058.96	
80	440705	5752.02	17415.7	280.383	5948.96	
81	442611	5753.26	17064.6	264.101	5878.97	
82	438339	5851.75	16802.3	251.913	5917.78	
83	440664	6046.01	16898.9	225.54	5579.9	
84	430825	5741.95	16208.9	270.21	5498.66	
85	429954	6126.74	16282.3	239.741	5269.72	
86	426017	6143.78	15991.9	242.785	5425.1	
87	415549	5875.51	15725	253.949	4991.46	
88	416655	6048.56	15683.6	220.476	4835.51	
89	421508	6043.24	15519.9	227.561	4950.36	
90	409511	5932.93	15109	236.71	4660.45	
91	415954	6302.68	15243.7	219.463	4812.83	
92	424241	6491.27	15412.4	244.817	4818.48	
93	421206	6598.22	15512.2	244.816	4774.3	
94	417219	6733.02	14946.8	228.586	4674.95	
95	417223	6905.37	14870.7	234.668	4524.43	
96	416524	6908.13	14948.9	231.618	4537.6	
97	409838	6743.59	14296.1	233.646	4337.27	
98	408066	7105.89	14579.8	209.321	4360.99	
99	400260	6794.27	14022.4	194.142	4093.53	
100	398103	6986.27	13993.9	195.151	4165.46	
101	401412	7123.02	13836.8	219.446	4142.58	
102	386877	6886.62	13438.2	214.389	3847.3	
103	379974	6687.43	12811.4	194.146	3726.64	
104	379994	6682.67	13063.3	217.435	3663.74	
105	375659	6722.87	12781.2	209.342	3589.61	
106	371717	6761.63	12101.2	196.169	3574.92	
107	369521	6858.23	12206.4	188.073	3542.47	
108	363685	7031.46	11762.3	187.063	3408.02	
109	358929	6856.75	11629.8	191.101	3349.38	
110	355973	6510.98	11235	200.209	3271.49	
111	348291	6703.29	10971.3	171.896	3099.79	
112	353797	7104.9	10764.7	164.823	3124.02	
113	350781	7100.79	10718.1	163.81	3071.19	
114	351180	7145.57	10912	187.062	3145.73	
115	357931	7498.48	10859.1	179.978	3147.11	
116	355855	7423.71	10927.1	183.013	3151.82	
117	358596	7689.11	10763.5	185.04	3123.89	
118	358705	7744.2	10656.6	157.754	3100.74	
119	353633	7707.8	10619.9	182.007	3088.7	
120	351399	7452.5	10362.3	186.052	3001.13	
121	350321	7943.29	10227.1	153.718	2986.36	
122	351897	7983.84	10144.3	184.029	3060.75	
123	349876	7985.2	10150.7	159.773	2888.03	
124	351596	8165.38	9915.51	187.062	2939.56	
125	347714	7974.6	10059	178.972	2871.89	
126	345772	8104.83	9561.87	189.084	2891.59	
127	343920	8103.3	9558.59	147.662	2853.27	
128	345114	8202.93	9448.68	167.867	2870.37	
129	339682	8157.74	9278.14	139.593	2816.41	
130	339056	8162.96	8933.42	158.761	2721.87	
131	339455	8319.06	9050.88	148.67	2796.17	
132	339878	8162.71	9141.86	166.845	2655.82	
133	340515	8483.13	8948.48	155.734	2692.98	
134	342005	8566.2	8658.56	158.767	2852.22	
135	336528	8585.96	8565.52	159.775	2661.79	
136	334337	8691.27	8223.01	165.831	2649.81	
137	328914	8607.87	8132.59	136.566	2600.04	
138	330180	8748.53	8030.5	154.728	2553.33	
139	332766	8829.46	7966.64	150.684	2625.48	
140	321865	8235.86	7596.02	131.527	2485.32	
141	330747	8696.8	7889.89	147.661	2520.1	
142	324406	8669.96	7498.3	142.619	2554.47	
143	324313	8573.8	7507.37	139.589	2575.35	
144	330806	8980.47	7487.11	143.627	2592.08	
145	326696	9069.64	7502.32	141.609	2550.57	
146	328341	9189.08	7341.31	120.438	2603.7	
147	327514	9176.48	7167.67	149.672	2534.99	
148	323471	8845.21	7014.46	144.636	2498.1	
149	323329	9135.87	7022.06	148.672	2642.52	
150	320635	8928.47	6766.64	137.572	2522.93	
151	319622	9053.61	6554.38	107.351	2574.71	
152	315736	8844.63	6641.62	120.439	2471.85	
153	310834	8607.67	6393.74	126.485	2502.28	
154	318222	9204.06	6466.08	143.627	2529.26	
155	316524	9185.42	6185.36	134.546	2466.71	
156	312523	8966.81	6079.55	141.61	2542.61	
157	309310	8636.36	6065.41	138.583	2489.78	
158	304805	8694.73	5774.04	115.405	2389.17	
159	303083	8693.54	5749.88	132.534	2499.78	
160	298962	8652.81	5406.96	126.486	2250.19	
161	300775	8381.66	5401.03	127.492	2383.54	
162	298625	8490.29	5288.7	127.495	2404.52	
163	298825	8434.49	5099.95	130.518	2483.27	
164	296060	8397.07	5250.13	130.518	2418.44	
165	292031	8213.37	4935.23	115.405	2403.06	
166	291896	8331.85	4959.58	118.427	2369.55	
167	296432	8528.41	4919.01	114.398	2522.77	
168	295736	8381.95	4914.51	117.419	2423.01	
169	295574	8515.61	4750.76	115.405	2398.89	
170	293868	8427.47	4755.17	91.2537	2447.12	
171	291699	8368.93	4609.71	126.487	2397.11	
172	289954	8266.75	4441.62	108.357	2472.68	
173	289270	8289.61	4512.92	116.413	2449.6	
174	290200	8197.53	4448.86	98.2943	2479.99	
175	296885	8655.39	4352.06	114.398	2558.82	
176	293079	8469.18	4239.01	98.2941	2619.05	
177	299156	8550.1	4370.93	131.517	2648.24	
178	299199	8859.79	4173.93	114.398	2725.74	
179	295903	8607.74	4099.9	115.405	2757.22	
180	295702	8856.8	4107.68	109.36	2720.45	
181	298798	8836.24	4085.66	111.376	2743.47	
182	288761	8345.73	4001.37	99.3003	2634.97	
183	284227	7978.37	3780.95	111.378	2576.35	
184	283711	8200.75	3651.72	77.1812	2632.97	
185	281776	8082.55	3598.18	88.2371	2681.17	
186	281053	7888.11	3504.57	89.2425	2519.6	
187	286195	8168.72	3632.75	107.351	2622.37	
188	284118	8070.98	3427.01	101.312	2782.11	
189	279884	7924.4	3434.22	102.316	2749.64	
190	277099	7933.48	3224.47	87.2317	2790.94	
191	276188	7740.59	3301.57	108.357	2753.02	
192	272502	7534.98	3136.24	88.2372	2676.66	
193	277113	7880.6	3264.69	108.358	2647.24	
194	275571	7776.92	3188.17	110.371	2661	
195	272084	7552.27	2974.56	119.431	2733.16	
196	273199	7626.92	2949.4	96.2812	2696.51	
197	269243	7500.67	2879.1	104.331	2733.1	
198	269480	7424.42	2826.35	123.46	2673.95	
199	269604	7577.65	2804.16	118.427	2797.04	
200	267965	7591.89	2764.86	117.417	2793.04	
201	263166	7220.65	2670.42	76.1768	2638.49	
202	259725	7058.84	2622.05	106.344	2736.36	
203	257662	6886.91	2486.48	86.2251	2720.47	
204	255793	6939.97	2366.02	91.2514	2659	
205	255704	6634.7	2391.48	101.313	2574.27	
206	250891	6494.29	2309.37	88.2372	2720.29	
207	254028	6616.59	2352.03	85.2209	2576.39	
208	253101	6716.25	2307.51	110.371	2691.69	
209	256287	6736.92	2206.07	94.2707	2681.01	
210	252465	6576.67	2228.97	106.344	2610.67	
211	253128	6580.76	2192.35	97.2883	2700.4	
212	252131	6688.34	2087.51	95.2762	2668.06	
213	251379	6624.41	2077.29	106.344	2792.27	
214	252199	6401.38	2080.7	105.338	2783.19	
215	251140	6571.56	2008.33	89.2426	2788.92	
216	253058	6391.06	2047.94	96.2828	2830.1	
217	250731	6405.78	1930.38	101.313	2617.71	
218	249219	6144.47	1876.47	88.2414	2812.28	
219	247091	6118.23	1824.15	90.2474	2802.97	
220	245206	6173.83	1835.26	83.2089	2743.56	
221	243707	5916.05	1802.63	87.2318	2642.37	
222	242661	6018.67	1808.21	87.2314	2743.56	
223	245273	5881.96	1704.69	100.309	2677.61	
224	243968	5855.83	1663.68	101.312	2738.83	
225	243966	5865.54	1658.15	85.2213	2699.71	
226	243985	5770.25	1636.03	79.1911	2720.12	
227	242547	5686.19	1550.07	79.1911	2705.77	
228	244949	5670.11	1601.91	95.2765	2749.91	
229	244074	5703.86	1573.26	96.2824	2760.31	
230	240714	5647.21	1554.56	94.2698	2664.53	
231	239901	5364.45	1468.92	92.2592	2800.8	
232	239321	5436.77	1444.88	104.331	2771.33	
233	236975	5396.36	1384.06	86.2251	2624.76	
234	239148	5272.1	1415.42	87.2318	2593.05	
235	237163	5318.78	1363.21	98.2941	2628.18	
236	234988	5038.8	1387.27	90.2481	2680.19	
237	232954	5002.19	1254.93	105.338	2658.83	
238	234410	5026.6	1270.05	83.2109	2550.62	
239	232778	4766.44	1244.14	102.319	2495.8	
240	228069	4736.79	1175.23	90.248	2490.14	
241	231062	4876.84	1137.6	94.2707	2722.11	
242	208508	3863.06	951.138	88.2372	2052.76	
243	203211	3590.12	899.232	86.2264	2145.82	
244	206452	3810.71	934.189	82.2059	2142.4	
245	210504	3908.14	907.742	92.2593	2239.58	
246	213337	4091.91	874.961	85.2213	2279.62	
247	214049	3955.2	958.555	74.1676	2237	
248	217695	3990.69	923.547	100.306	2284.06	
249	214846	3942.02	904.515	86.2265	2264.68	
250	213451	3914.26	877.062	75.1742	2300.31	
251	216358	3940.61	919.316	99.3003	2282.21	
252	217314	3848.61	879.172	90.2481	2290.41	
253	218970	3928.12	854.922	91.2524	2391.64	
254	215915	3613.79	786.583	80.196	2292.56	
255	216897	3652.48	908.743	83.2109	2290.96	
256	217762	3774.15	859.137	80.1955	2291.26	
257	217591	3900.53	806.58	75.1722	2248.61	
258	220425	3667.19	786.583	86.2265	2360.26	
259	217991	3657.48	772.949	103.325	2370.66	
260	216338	3478.44	722.708	89.2426	2258.08	
261	215286	3525.5	723.753	102.319	2271.55	
262	217075	3475.49	736.3	109.364	2248.61	
263	217315	3499.25	691.385	85.2213	2191.35	
264	215836	3298.48	665.328	99.2998	2163.92	
265	215521	3363.85	700.775	84.2161	2186.7	
266	214857	3305.02	623.723	84.2161	2152.67	
267	215887	3362.63	672.644	79.1911	2222.23	
268	213888	3217.16	643.472	82.2051	2186.78	
269	212855	3154	622.684	77.1819	2195.92	
270	211549	3011.57	618.53	96.2824	2117.21	
271	210200	2985.16	561.513	96.2823	2017.37	
272	209731	2940.63	578.139	78.1857	2031.08	
273	210284	2920.3	553.236	73.1631	2032.08	
274	211795	3087.06	545.997	89.2426	2084.11	
275	210262	2839.39	588.442	84.2158	1911.39	
276	210424	2877.51	515.01	94.2706	2081.97	
277	210098	2756.39	494.385	103.325	2070.62	
278	205459	2670.24	476.873	88.2371	1857.54	
279	261044	4022.41	731.071	137.579	2868.37	
280	244097	3422.9	639.313	132.533	2509.78	
281	240534	3260.58	585.332	106.344	2494.8	
282	233229	3128.05	572.901	97.2883	2262.24	
283	227633	2952.75	571.865	104.331	2144.68	
284	224674	2965.89	565.653	96.2822	2120.49	
285	221145	2723.97	550.134	103.324	2065.95	
286	222030	2739.65	499.539	102.319	2152.53	
287	223082	2723.29	480.992	98.2943	2048.94	
288	220950	2717.22	468.639	101.312	2105.84	
289	219189	2649.07	408.039	83.2097	2036.61	
290	218077	2598.6	453.211	100.306	2069.62	
291	219936	2510.94	418.295	99.304	1996.28	
292	218871	2582.2	439.852	91.2537	1990.12	
293	217959	2457.41	431.663	100.306	1905.65	
294	216952	2343.95	427.53	95.2765	1883.32	
295	211795	2378.45	396.766	102.325	1836.32	
296	214177	2328.96	372.196	97.2899	1877.65	
297	210677	2262.23	348.684	108.358	1751.36	
298	208931	2167.22	410.09	110.371	1730.45	
299	213940	2204.93	369.127	91.2537	1913.76	
300	213327	2214.07	371.173	106.344	1804.91	
301	213674	2218.66	367.082	102.318	1798.28	
302	212768	2172.93	356.858	102.32	1759.26	
303	210605	2072.75	355.836	109.364	1779.32	
304	210695	2033.03	291.597	113.391	1748.24	
305	209089	2005.93	326.226	97.2883	1579.77	
306	207960	1994.64	303.799	93.2681	1645.98	
307	208315	1893.3	282.438	89.2425	1663.68	
308	208436	1909.94	303.799	95.2759	1702.58	
309	210246	1893.3	264.134	94.2707	1664.89	
310	210547	1799.28	294.633	89.2426	1631.72	
311	205092	1752.38	282.42	92.2593	1578.74	
312	204765	1805.87	274.283	96.2847	1545.87	
313	199627	1776.97	260.053	99.3003	1446.24	
314	198228	1630.4	298.706	95.2765	1478.87	
315	196830	1689.16	257.005	85.2213	1481.24	
316	199924	1689.15	253.958	106.35	1415.42	
317	192500	1496.29	264.117	94.2707	1331.68	
318	194089	1557.76	286.49	88.2365	1392.54	
319	190040	1521.51	263.101	88.2372	1339.36	
320	186715	1443.69	242.79	111.378	1319.92	
321	190158	1509.35	206.294	107.353	1298.33	
322	186261	1420.87	220.477	95.2765	1290.52	
323	182227	1425.14	201.231	85.2213	1259.18	
324	187034	1364.25	216.423	76.1768	1296.01	
325	185604	1421.93	243.805	82.2059	1322.09	
326	187230	1380.49	228.587	76.1768	1262.41	
327	183258	1290.52	226.559	86.2265	1216.03	
328	178433	1308.81	214.397	91.2515	1211.72	
329	181458	1271.03	228.587	115.404	1188.05	
330	175370	1238.66	196.17	80.196	1149.54	
331	171832	1192.35	178.974	88.242	1139.81	
332	176035	1155.75	173.92	92.2618	1146.17	
333	170692	1148.32	192.122	72.1608	1079.81	
334	170404	1184.75	177.963	86.2265	1054.2	
335	170089	1094.78	141.61	84.2161	1109.75	
336	167403	1130.09	157.757	98.2943	1040.34	
337	174812	1146.17	178.974	84.2161	1100.12	
338	172688	1122.6	162.806	96.2824	1049.93	
339	167175	1039.28	185.041	74.1676	1013.92	
340	169100	1039.28	175.941	97.288	1011.72	
341	163841	1056.33	143.628	86.2265	1017.98	
342	164566	952.138	157.757	63.1213	972.288	
343	163493	903.458	140.602	98.2943	980.779	
344	162952	914.028	136.568	80.196	1030.82	
345	158891	951.078	142.619	97.2883	893.951	
346	161517	870.733	128.503	71.1543	910.914	
347	158046	924.605	130.518	80.196	922.489	
348	157555	852.815	139.593	62.1176	843.337	
349	162878	902.401	130.518	64.1253	843.337	
350	161927	829.616	128.503	74.1676	874.952	
351	162930	818.089	126.487	88.2372	895.007	
352	157024	838.074	116.413	78.1863	881.282	
353	156505	817.038	120.442	86.2247	905.592	
354	154015	792.879	113.391	73.1631	830.708	
355	152246	705.995	116.413	75.1722	806.53	
356	152050	724.797	120.442	73.1631	768.757	
357	163056	814.92	124.472	85.2213	826.5	
358	158751	758.28	126.487	80.196	823.346	
359	159587	736.299	110.371	73.1631	776.095	
360	155244	781.338	115.413	92.2593	740.484	
361	151866	683.042	106.351	87.2318	785.534	
362	152757	707.038	115.405	77.1838	728.979	
363	150626	678.872	102.319	84.2161	734.208	
364	149265	655.957	117.42	64.1253	716.438	
365	149722	665.279	107.351	80.1974	718.573	
366	146630	623.723	92.2593	72.1587	646.593	
367	146306	634.114	84.2161	58.1029	664.328	
368	147565	588.442	89.2426	88.2372	673.704	
369	144301	584.296	83.2109	84.2161	624.801	
370	145739	600.885	103.325	75.1722	609.186	
371	143634	584.296	92.2593	69.1457	639.313	
372	144052	579.115	92.2593	71.1543	577.044	
373	143719	536.695	78.1863	57.0994	566.688	
374	142908	550.134	87.2318	77.1815	557.374	
375	140690	572.901	80.196	61.1138	570.83	
376	143047	502.625	69.1457	70.15	589.478	
377	139139	521.18	84.2161	82.2089	553.236	
378	138263	482.022	88.2372	77.1815	554.271	
379	140971	483.022	84.2161	78.189	538.762	
380	136298	476.873	52.0827	66.1333	496.446	
381	138632	487.172	68.1415	78.1845	511.915	
382	139747	483.051	70.15	70.15	568.759	
383	137500	449.099	90.2481	70.15	484.081	
384	139624	482.021	71.1543	71.1543	561.513	
385	138509	469.668	75.1722	63.1214	485.111	
386	135314	426.489	67.1374	67.1374	456.324	
387	138444	422.398	80.196	79.1908	487.202	
388	134461	409.064	61.1138	75.1722	441.906	
389	133486	360.947	63.1214	78.1863	471.755	
390	134928	383.452	61.1138	74.1676	455.267	
391	135994	394.717	64.1253	76.1764	426.53	
392	134854	370.15	70.15	58.1029	388.572	
393	133958	404.964	62.1176	63.1214	442.943	
394	131150	372.196	66.1333	63.1214	475.844	
395	132946	346.641	54.0892	66.1333	441.906	
396	131025	369.127	51.0795	66.1333	415.217	
397	131595	404.964	46.0647	62.1176	422.398	
398	131943	368.082	49.0734	75.1722	358.902	
399	129842	389.596	61.1138	60.1101	423.425	
400	127846	345.62	65.1293	58.1029	384.476	
401	128258	324.186	69.1457	53.0859	357.88	
402	127617	291.579	37.0418	61.1143	355.836	
403	127809	310.932	57.0994	65.1293	351.749	
404	130832	308.894	57.0994	71.152	391.644	
405	129276	330.287	74.1676	75.1722	366.059	
406	128824	300.743	58.1029	89.2426	367.082	
407	129468	276.317	45.0619	51.0795	366.059	
408	128576	303.799	45.0619	65.1293	343.577	
409	125957	251.927	65.1293	55.0923	315.009	
410	126104	289.543	46.0647	59.1065	325.206	
411	124258	265.134	47.0675	57.0994	320.107	
412	124067	284.455	57.0994	67.1374	331.347	
413	122474	280.386	40.0489	66.1333	323.166	
414	122434	271.233	62.1176	55.0925	328.267	
415	119855	264.117	49.0763	62.1176	300.743	
416	119001	246.85	46.0647	57.0994	285.473	
417	121245	278.351	38.0441	52.0827	264.117	
418	119064	230.608	48.0704	53.0859	285.473	
419	117545	235.687	41.0514	52.0827	269.199	
420	117306	237.716	47.0675	67.1374	285.473	
421	116909	234.673	36.0396	59.1065	257.005	
422	113550	224.532	32.0313	59.1064	264.117	
423	116164	197.182	45.0619	56.0959	252.943	
424	114817	224.532	50.0765	58.1029	232.644	
425	113985	196.17	28.024	70.15	282.42	
426	114921	207.306	33.0333	53.0883	225.545	
427	112064	180.996	32.0313	54.0892	246.85	
428	112763	206.293	40.0489	59.1065	225.545	
429	113339	178.974	35.0374	55.0925	261.069	
430	111416	190.099	45.0619	56.0959	204.268	
431	112411	193.134	30.0275	57.0994	247.865	
432	111930	173.92	29.0257	51.0795	252.943	
433	112189	186.052	26.0207	58.1011	242.79	
434	112350	173.92	36.0396	50.0765	245.835	
435	110829	188.075	27.0223	58.1029	216.423	
436	110196	176.952	31.0294	54.0883	222.504	
437	107957	168.867	34.0353	42.0539	210.344	
438	107631	176.952	24.0176	53.0859	186.052	
439	106490	151.7	21.0135	54.0892	177.974	
440	108867	162.806	25.0191	58.1029	191.11	
441	107113	183.018	30.0275	53.0859	222.504	
442	105837	164.826	34.0353	45.0619	207.306	
443	103896	137.576	25.0191	59.1065	165.836	
444	101760	121.449	29.0257	65.1293	159.777	
445	101862	154.728	36.0396	52.0827	169.878	
446	101139	122.456	25.0206	46.0639	178.993	
447	98961.1	128.503	22.0148	41.0514	154.728	
448	100282	138.584	23.0162	49.0734	186.052	
449	99635.6	136.568	26.0207	47.0675	151.7	
450	99111.4	126.487	17.0088	58.1029	170.888	
451	93440.4	126.487	18.0099	41.0514	144.637	
452	92235.5	104.331	27.0223	37.0418	152.709	
453	91815.3	113.391	20.0122	52.0827	134.551	
454	92127.1	114.398	17.0088	44.0592	149.682	
455	93602.9	118.427	32.0313	41.0514	144.637	
456	93942.9	113.391	24.0176	50.0782	138.584	
457	95731.9	103.325	21.0135	58.1029	136.568	
458	95669	115.405	12.0044	37.0418	154.728	
459	97024.2	123.464	27.0223	41.0514	132.536	
460	94232.4	124.472	13.0052	50.0765	139.593	
461	94300.1	110.371	19.011	50.0765	128.503	
462	94427.5	122.449	15.0069	47.0668	155.738	
463	93995	119.434	15.0069	56.0959	113.391	
464	93355.6	87.2318	24.0176	43.0565	121.449	
465	94499.8	98.2943	17.0088	49.0734	133.543	
466	94536.1	123.464	17.0088	52.0827	116.413	
467	94419.8	123.464	12.0044	43.0565	132.535	
468	93251.6	100.306	16.0078	46.0671	133.543	
469	93066.7	109.364	23.0162	49.0734	134.551	
470	94080.4	91.2537	14.006	41.0514	143.628	
471	96000.3	110.371	25.0191	50.0765	112.385	
472	94240.3	83.2109	14.006	59.1065	123.464	
473	94323	97.2883	23.0162	60.1101	133.543	
474	94654.3	101.313	25.0191	41.0514	112.385	
475	94874.2	103.325	16.0078	38.0441	126.487	
476	94843.7	104.331	17.0088	45.0619	129.511	
477	95717.4	98.2943	23.0162	33.0333	137.576	
478	95249.2	83.2109	14.006	49.0734	120.442	
479	95999	101.313	20.0122	39.0465	96.2824	
480	94981.6	99.3003	10.0031	44.0592	111.378	
481	94721.8	88.2372	16.0078	36.0396	116.413	
482	93924.3	103.325	11.0037	42.0539	104.331	
483	95117.4	88.2372	15.0069	39.0465	124.472	
484	93494	82.2009	16.0078	47.0675	107.351	
485	92753.2	79.1911	12.0044	51.0795	122.456	
486	93999	84.2161	20.0122	36.0396	108.358	
487	93779.8	81.2009	11.0037	48.0704	101.313	
488	93159.1	93.2649	22.0148	50.0765	107.357	
489	93834.3	72.1587	11.0037	38.0441	99.3003	
490	93068.8	78.1863	14.006	41.0514	96.2882	
491	92247.3	72.1587	16.0078	42.0539	105.338	
492	93316.4	56.0959	23.0162	35.0374	94.2707	
493	95083.4	73.1631	19.011	41.0514	113.391	
494	92939.3	62.1176	16.0078	37.0418	74.1676	
495	94771.5	60.1101	15.0069	46.0647	102.319	
496	95630.1	72.1587	16.0078	42.0539	94.2707	
497	98028.4	74.1676	20.0122	40.0489	97.2883	
498	96801.8	72.1587	15.0069	51.0795	92.2593	
499	97206.8	62.1176	15.0069	43.0565	99.3009	
500	103397	80.196	9.00247	48.0704	111.378	
501	102773	88.2372	15.0069	40.0489	124.472	
502	97861.1	81.2009	16.0078	37.0418	93.2649	
503	102084	69.1457	20.0122	47.0675	98.2943	
504	100217	74.1674	12.0044	48.0704	87.2318	
505	98417.9	64.1253	16.0078	49.0734	99.3003	
506	100612	62.1176	18.0099	38.0441	105.338	
507	99235	59.1065	11.0037	42.0539	77.1862	
508	99765.7	71.1543	13.0052	53.0859	89.2426	
509	99576	71.1543	13.0052	55.0925	102.319	
510	100121	75.1722	10.0031	47.0675	85.2213	
511	100474	59.1065	18.0099	44.0592	72.1587	
512	99259.6	58.1029	13.0052	36.0396	66.1333	
513	95352.6	56.0959	14.006	33.0333	92.2593	
514	98855.7	53.0859	12.0044	53.0859	96.2824	
515	96801.4	59.1065	19.011	46.0647	82.2059	
516	94897.2	63.1214	12.0044	42.0539	78.1863	
517	98752.5	62.1176	15.0069	42.0539	71.1543	
518	95107.9	54.0892	9.00247	49.0734	83.2109	
519	98759.1	65.1293	15.0069	41.0508	78.1863	
520	98605.9	50.0765	14.006	38.0441	94.2707	
521	97183	56.0959	13.0052	37.0418	75.1722	
522	98600.2	75.1719	12.0044	36.0396	90.2504	
523	96906	50.0765	9.00247	48.0704	87.2318	
524	95469.4	49.0734	10.0031	51.0795	80.196	
525	97118.4	66.1333	15.0069	49.0734	74.1676	
526	95537.5	50.0765	13.0052	44.0592	64.1253	
527	96013.8	57.0994	11.0037	46.0647	76.1768	
528	96555.2	44.0592	8.00195	29.0257	65.1293	
529	95371.7	56.0959	8.00195	33.0333	57.0994	
530	96634.8	57.0994	10.0031	47.0675	76.1768	
531	98520.6	64.1253	11.0037	28.024	86.2265	
532	96763.6	45.0619	15.0069	50.0765	63.1214	
533	97671	54.0892	15.0069	37.0418	67.1374	
534	97752	71.1501	9.00247	37.0417	63.1214	
535	97331.4	35.0374	15.0069	40.0489	67.1374	
536	98785.1	42.0539	11.0037	50.0765	76.1768	
537	98971.8	41.0514	12.0044	37.0418	71.1543	
538	96664.8	43.0565	9.00247	41.0514	68.1415	
539	99884.9	56.0959	6.0011	42.0539	76.1815	
540	98001.4	45.0619	7.0015	44.0596	70.15	
541	99278.4	50.0765	8.00195	38.0441	68.1457	
542	98444.5	49.0734	9.00247	52.0827	68.1415	
543	98290.8	39.0465	10.0031	36.0417	70.15	
544	100424	48.0704	13.0052	39.0465	71.1543	
545	100584	45.0619	14.006	50.0765	71.1543	
546	99884.4	45.0619	16.0078	49.0734	67.1374	
547	99798.8	46.0647	12.0044	43.0565	74.1676	
548	99276.6	52.0827	20.0122	35.0374	76.1768	
549	97992.9	51.0795	17.0088	45.0619	54.0892	
550	99967.2	29.0257	11.0037	43.0565	69.1457	
551	98674.2	54.0892	16.0078	36.0396	55.0925	
552	97534.2	46.0647	10.0031	39.0453	58.1029	
553	99836.6	52.0827	9.00247	45.0619	61.1138	
554	98897	42.0539	7.0015	31.0294	59.1065	
555	99462.2	39.0465	20.0122	49.0734	69.1457	
556	99243.7	37.0418	12.0044	53.0859	46.0675	
557	99753.9	28.024	20.0122	32.0313	49.0734	
558	100396	44.0592	13.0052	44.0591	60.1101	
559	98633.6	42.0539	14.006	40.0489	64.1253	
560	97052.3	33.0333	10.0031	42.0539	64.1253	
561	97187.9	41.0514	7.0015	49.0734	65.1323	
562	96653.6	42.0539	8.00195	37.0418	62.1176	
563	95738.4	33.0333	9.00247	50.0765	60.1101	
564	97209.5	33.0333	6.0011	28.024	51.0795	
565	96127.8	30.0275	10.0031	37.0418	51.0795	
566	95791.4	37.0418	8.00195	35.0374	53.0859	
567	96958.2	33.0333	11.0037	42.0539	53.0859	
568	95886.6	22.0148	5.00076	45.0619	57.0994	
569	97529.7	30.0275	8.00195	39.0465	59.1065	
570	95680.5	24.0176	8.00195	38.0441	58.1029	
571	95047.1	32.0313	7.0015	49.0734	61.1138	
572	96332.6	44.0592	11.0037	41.0514	49.0734	
573	95025.5	39.0465	7.0015	29.0257	55.0925	
574	93617.7	28.024	6.0011	41.0514	76.1768	
575	95959.1	30.0275	7.0015	35.0374	49.0734	
576	94650.7	33.0333	6.0011	38.0441	54.0892	
577	94913.3	36.0396	11.0037	42.0539	54.0892	
578	94987.9	21.0135	9.00247	37.0418	58.1029	
579	91730.6	31.0294	8.00195	41.0514	58.1065	
580	96016.1	26.0207	12.0044	35.0374	59.1065	
581	94424.2	29.0257	8.00195	27.0223	45.0619	
582	92363	27.0223	5.00076	33.0333	47.0675	
583	94887.7	37.0418	10.0031	46.0647	57.0994	
584	94723.1	37.0418	12.0044	50.0765	67.1374	
585	92778.1	29.0257	12.0044	45.0619	43.0565	
586	94505.2	26.0207	15.0069	46.0647	60.1101	
587	91600.7	27.0223	6.0011	37.0418	47.0675	
588	95192.8	25.0191	10.0031	31.0294	50.0765	
589	94577.9	27.0223	11.0037	40.0489	44.0592	
590	94296.9	20.0122	10.0031	47.0675	56.0959	
591	95592.5	26.0207	10.0031	33.0333	40.0489	
592	94918.7	30.0275	9.00247	33.0351	44.0592	
593	90437.1	21.0135	7.0015	22.0148	51.0795	
594	94770.8	17.0088	7.0015	40.0489	47.0675	
595	92923.1	21.0135	13.0052	40.0489	45.0619	
596	91994.3	24.0176	1.00003	42.0539	49.0734	
597	94650.5	26.0207	7.0015	37.0418	57.0994	
598	93902.3	25.0191	9.00247	34.0353	49.0734	
599	95203.5	20.0122	11.0037	47.0675	41.0514	
600	96009	29.0257	8.00195	52.0827	54.0892	
601	92309.1	27.0223	8.00195	42.0539	37.0418	
602	95279.5	24.0175	4.00049	41.0514	51.0821	
603	95052.6	25.0191	10.0031	45.0619	48.0704	
604	93865.6	17.0088	12.0044	32.0313	45.0619	
605	93877	26.0207	6.0011	32.0313	39.0465	
606	94892.3	27.0223	9.00247	37.0418	45.0619	
607	91189.6	25.0191	2.00012	40.0489	50.0765	
608	95930.9	17.0088	15.0069	28.0254	54.0892	
609	91514.8	16.0078	9.00247	40.0489	36.0396	
610	91049.4	19.011	6.0011	39.0465	40.0489	
611	94901.9	14.006	8.00195	36.0396	39.0465	
612	91378.4	22.0148	6.0011	39.0465	45.0647	
613	93017.7	24.0176	6.0011	41.0514	28.024	
614	91948	16.0078	7.0015	47.0675	32.0313	
615	91991.7	18.0099	9.00247	34.0353	40.0489	
616	92312.8	17.0088	7.0015	32.0313	49.0734	
617	92754.7	14.006	6.0011	37.0418	42.0539	
618	92761.7	22.0148	4.00049	42.0539	27.0223	
619	97157	19.011	5.00076	36.0396	44.0595	
620	91986.6	26.0207	7.0015	24.0176	38.0441	
621	88590.9	19.011	7.0015	33.0333	43.0565	
622	90092.9	25.0191	5.00076	38.0441	46.0647	
623	88536.2	21.0135	5.00076	42.0539	42.0539	
624	87774.9	22.0148	6.0011	39.0484	42.0539	
625	87274.8	24.0176	7.0015	36.0396	44.0592	
626	87209	16.0078	16.0078	34.0353	35.0374	
627	88894.1	19.011	5.00076	39.0465	35.0395	
628	89455.6	11.0037	10.0031	37.0418	35.0374	
629	89937.2	16.0078	10.0031	43.0565	45.0619	
630	91009.8	18.0099	11.0037	29.0257	44.0592	
631	89431.8	7.0015	6.0011	33.0332	20.0122	
632	90222.6	19.011	3.00027	36.0396	26.0207	
633	89025.8	20.0122	1.00003	32.0313	41.0514	
634	89091.2	21.0135	11.0037	48.0704	42.0539	
635	89889.1	22.0148	4.00049	41.0514	39.0465	
636	88744.4	11.0037	10.0031	27.0223	44.0592	
637	89192.9	12.0044	8.00195	36.0396	51.0795	
638	89483.9	16.0078	9.00247	32.0313	32.0313	
639	88644.8	20.0122	5.00076	42.0539	45.0619	
640	88182.6	15.0069	5.00076	26.0207	36.0396	
641	88594.4	10.0031	7.0015	34.0353	33.0333	
642	88682	17.0088	5.00076	28.024	41.0514	
643	86886.7	12.0044	6.0011	41.0514	28.024	
644	86329	12.0044	6.0011	29.0257	33.0333	
645	86715.9	22.0148	5.00076	33.0333	28.024	
646	83078	9.00247	5.00076	40.0489	30.0275	
647	83370.6	21.0135	4.00049	34.0353	28.024	
648	80731.1	13.0052	1.00003	40.0489	29.0257	
649	84178.9	11.0037	6.0011	38.0441	30.0275	
650	84568.4	17.0088	9.00247	38.0441	37.0418	
651	85320.7	11.0037	4.00049	26.0207	40.0489	
652	85106.1	11.0037	7.0015	27.0237	28.024	
653	83863.4	12.0038	6.0011	37.0418	25.0191	
654	82625.3	9.00247	7.0015	35.0374	26.0207	
655	82756.9	10.0031	5.00076	33.0333	29.0257	
656	84067.2	9.00247	4.00049	38.0441	47.0675	
657	83932.5	18.0099	3.00027	36.0396	27.0223	
658	88530.1	10.0031	2.00012	33.0333	32.0313	
659	87507	12.0044	6.0011	46.0647	32.0313	
660	86707.7	10.0031	7.0015	40.0489	30.0275	
661	84866.2	13.0052	6.0011	33.0333	40.0489	
662	83587.5	11.0037	4.00049	29.0257	32.0313	
663	85956.6	13.0052	5.00076	41.0514	32.0313	
664	86871.4	9.00247	10.0031	20.0122	28.024	
665	88859.4	14.006	7.0015	47.0675	36.0396	
666	86645.7	11.0037	9.00247	32.0313	30.0275	
667	84525.8	7.0015	6.0011	35.0374	32.0313	
668	82753.2	5.00076	6.0011	38.0441	33.0333	
669	82544.3	10.0031	9.00247	31.0294	28.024	
670	81211.8	14.006	7.0015	39.0465	28.024	
671	80543.6	9.00247	6.0011	35.0374	29.0257	
672	79229.5	10.0031	1.00003	38.0441	32.0313	
673	79933.8	15.0069	5.00076	32.0313	23.0162	
674	80251.1	14.006	6.0011	17.0088	28.024	
675	80236.9	6.0011	2.00012	28.024	36.0396	
676	79287.6	9.00211	4.00049	39.0464	24.0176	
677	79661.3	7.0015	4.00049	35.0393	23.0176	
678	79885.2	10.0031	3.00027	33.0333	26.0207	
679	79924.9	3.00027	5.00076	28.024	21.0148	
680	81224.9	12.0044	6.0011	30.0275	31.0294	
681	81160.8	15.0069	4.00049	38.0441	19.011	
682	81620.9	12.0044	3.00027	40.0489	29.0257	
683	82351	19.011	4.00049	32.0313	23.0162	
684	81702.5	11.0037	4.00049	33.0333	24.0176	
685	82737.7	15.0069	3.00046	30.0275	34.0353	
686	82014.9	10.0031	4.00049	37.0418	17.0088	
687	81698	7.0015	4.00049	37.0418	30.0275	
688	81611.5	9.00247	2.00012	47.0702	22.0148	
689	78556.1	7.0015	3.00027	35.0374	31.0294	
690	80078.9	16.0078	3.00027	27.0212	37.0418	
691	82623.2	10.0031	3.00027	44.0592	34.0353	
692	78990.3	11.0037	6.0011	27.0223	29.0257	
693	81653.4	15.0069	5.00076	39.0465	20.0122	
694	82341.5	11.0037	5.00076	40.0489	21.0135	
695	82158.9	6.0011	2.00012	28.024	26.0207	
696	82070	3.00027	3.00027	26.0221	35.0374	
697	80833.6	10.0031	4.00049	34.0353	20.0122	
698	80660.1	11.0037	10.0031	26.0207	28.024	
699	82327.6	1.00003	4.00049	35.0374	19.011	
700	80785.9	6.0011	2.00012	30.0275	23.0162	
701	80717	5.00076	3.00027	34.0353	34.0374	
702	82147.3	6.0011	6.0011	33.0333	25.0191	
703	80302.1	8.00195	6.0011	29.0257	29.0257	
704	81103	3.00027	9.00247	27.0223	25.0191	
705	81346.7	10.0031	3.00027	16.0078	26.0207	
706	77444.4	11.0037	3.00027	24.0176	25.0191	
707	80366.5	9.00241	6.0011	28.024	26.0207	
708	81183.1	7.0015	5.00076	35.0374	14.006	
709	77877.1	14.006	6.0011	27.0223	24.0176	
710	81206.4	4.00049	5.00076	45.0619	29.0257	
711	81131.2	7.0015	3.00027	38.0441	34.0353	
712	77631.3	7.0015	6.0011	30.0275	26.0207	
713	80073	5.00076	11.0037	31.0294	23.0162	
714	76502.7	9.00247	6.0011	20.0122	20.0122	
715	80403.5	11.0037	1.00003	38.0441	33.0333	
716	80447.6	6.0011	3.00027	27.0223	15.0069	
717	78593.6	2.00012	6.0011	33.0333	27.0223	
718	80228.4	7.0015	6.0011	31.0294	29.0257	
719	79874.5	10.0031	2.00012	27.0223	22.0148	
720	78420.7	10.0031	7.0015	37.0418	19.011	
721	80336.1	12.0044	6.0011	35.0374	28.024	
722	78551.5	12.0044	4.00049	24.0176	15.0069	
723	75566.5	10.0031	4.00049	18.0099	25.0191	
724	79221.2	3.00027	5.00076	36.0396	18.0099	
725	76812.2	5.00076	4.00049	25.0191	19.011	
726	78728.9	11.0037	3.00027	30.0273	20.0122	
727	78076.8	5.00076	4.00049	29.0257	28.024	
728	76670.7	11.0037	4.00049	40.0511	23.0162	
729	78218.8	9.00247	7.0015	32.0313	22.0148	
730	78306	7.0015	4.00049	27.0223	27.0223	
731	77709.9	10.0031	7.0015	30.0275	25.0191	
732	78399	5.00076	6.0011	25.0191	27.0223	
733	76652.6	4.00049	2.00012	22.0148	18.0099	
734	74634.7	5.00076	6.0011	26.0207	32.0313	
735	76180.2	5.00076	3.00027	28.024	23.0162	
736	76340.6	5.00076	1.00003	35.0374	24.0176	
737	75970.6	5.00076	3.00027	32.0313	27.0223	
738	75514.1	6.0011	2.00012	25.0191	25.0191	
739	75061.7	5.00076	7.0015	28.024	23.0162	
740	72105.3	6.0011	5.00076	28.024	21.0135	
741	69808.6	3.00027	4.00049	31.0294	17.0088	
742	69559	6.0011	5.00076	33.0333	28.024	
743	68792.1	1.00003	3.00027	30.0275	31.0294	
744	66942	5.00076	5.00076	25.0204	20.0122	
745	66351.5	4.00049	1.00003	30.0275	24.0176	
746	65818.6	3.00027	3.00027	25.0191	15.0069	
747	63909.3	6.0011	3.00027	25.0191	18.0099	
748	62811.3	2.00012	4.00049	25.0191	19.011	
749	61547.3	3.00027	5.00076	25.0191	12.0044	
750	61190.1	4.00049	3.00027	26.0207	19.011	
751	59639.6	4.00049	2.00012	25.0191	17.0088	
752	57226.3	2.00012	6.0011	22.0148	20.0122	
753	56247.5	7.0015	1.00003	24.0176	20.0122	
754	54610	7.0015	2.00012	24.0176	11.0037	
755	52807.9	7.0015	3.00027	14.006	14.006	
756	51304.8	1.00003	3.00027	26.0207	21.0135	
757	149234	35.0371	22.0148	927.755	1504.72	
758	464167	57.0994	55.0925	1251.6	2111.66	
759	452875	43.0565	50.0765	783.424	1358.82	
760	466493	47.0675	45.0619	686.185	1159.05	
761	444099	31.0294	44.0592	564.627	834.917	
762	424910	33.0333	46.0647	513.978	659.084	
763	411345	38.0441	33.0333	401.917	590.515	
764	393444	39.0465	33.0333	373.215	485.111	
765	380957	29.0257	27.0223	315.008	437.797	
766	374690	36.0396	27.0223	298.706	331.328	
767	377051	34.0334	27.0223	366.076	344.599	
768	373023	31.0294	32.0313	328.284	303.799	
769	349779	30.0275	18.0099	233.658	298.706	
770	356613	28.024	23.0162	257.005	278.351	
771	346466	32.0313	24.0176	240.76	270.216	
772	345832	31.0294	25.0191	254.967	240.76	
773	335904	34.0353	17.0088	233.658	238.731	
774	335664	19.011	20.0122	222.504	235.695	
775	331943	31.0294	21.0135	211.351	231.63	
776	322262	30.0275	20.0122	193.134	209.332	
777	324340	26.0206	26.0207	195.158	195.158	
778	313616	23.0162	20.0122	179.985	207.306	
779	322063	31.0292	23.0162	206.293	199.206	
780	318958	23.0162	28.024	216.423	174.931	
781	317046	37.0418	21.0135	202.243	198.206	
782	320697	29.0257	20.0122	176.952	156.747	
783	309866	25.0191	23.0162	175.942	186.052	
784	314559	29.0257	18.0099	196.179	194.146	
785	316294	41.0514	25.0191	195.158	175.952	
786	315820	26.0207	21.0135	164.826	184.041	
787	305418	32.0301	22.0148	183.025	175.941	
788	309548	28.0238	33.0333	159.776	138.584	
789	310109	32.0313	26.0207	202.243	164.826	
790	310301	19.011	20.0122	174.931	138.584	
791	304807	17.0088	27.0223	206.29	158.767	
792	299118	21.0135	23.0162	172.909	131.527	
793	308523	26.0207	20.0122	171.908	136.568	
794	309397	24.0176	17.0088	158.767	183.018	
795	306798	24.0176	16.0078	192.117	154.738	
796	306459	25.0191	21.0135	186.06	132.535	
797	288220	34.0353	19.011	160.803	119.434	
798	294706	24.0175	23.0162	160.786	125.479	
799	304907	27.0223	29.0257	170.886	174.931	
800	303297	30.0275	16.0078	175.941	134.556	
801	303240	33.0333	24.0176	202.236	136.568	
802	303858	29.0257	18.0099	200.216	145.645	
803	299966	37.0418	20.0122	162.806	141.61	
804	304817	22.0148	18.0099	202.234	141.61	
805	302258	25.0191	25.0191	189.087	152.709	
806	301335	23.0162	26.0207	192.122	157.757	
807	306644	22.0148	20.0122	172.916	119.434	
808	301519	29.0257	19.011	148.673	120.442	
809	303085	18.0099	11.0037	191.11	138.584	
810	305266	27.0223	23.0162	178.971	153.719	
811	303368	27.0223	30.0275	169.878	129.511	
812	306489	28.024	24.0176	199.206	148.673	
813	309704	30.0275	20.0122	179.985	137.576	
814	305095	24.0175	21.0135	172.909	155.738	
815	313886	18.0099	33.0333	199.213	159.777	
816	312789	25.0191	20.0122	166.855	139.593	
817	309929	21.0135	16.0078	199.205	125.487	
818	315660	29.0257	21.0135	216.423	160.796	
819	317564	44.0592	34.0353	202.247	141.61	
820	318405	29.0244	24.0176	203.248	155.738	
821	318756	25.0191	19.011	194.146	161.796	
822	316953	26.0207	21.0135	191.11	149.682	
823	314693	26.0207	34.0353	186.063	126.487	
824	313063	28.024	27.0223	185.041	138.584	
825	314401	34.0353	25.0191	199.206	138.584	
826	312627	18.0099	30.0275	199.209	134.551	
827	307953	36.0396	24.0176	201.241	145.645	
828	304167	19.011	23.0162	193.134	131.527	
829	310367	23.0162	27.0223	157.757	140.602	
830	305121	25.0191	24.0176	179.985	141.61	
831	307933	21.0138	15.0069	177.963	137.576	
832	308961	29.0257	25.0191	178.98	145.645	
833	309025	16.0078	21.0135	189.087	126.487	
834	310375	22.0148	24.0176	193.134	129.511	
835	308684	19.011	31.0294	191.121	153.719	
836	311059	25.0191	29.0257	178.973	136.576	
837	310780	24.0176	25.0191	177.961	136.568	
838	309250	18.0099	14.006	192.122	133.543	
839	310754	19.011	20.0122	198.193	150.7	
840	310697	26.0208	28.024	181.006	111.387	
841	309064	27.0223	20.0122	183.018	139.593	
842	307185	19.011	22.0148	190.099	143.628	
843	308596	25.0178	20.0122	207.306	130.518	
844	309399	29.0257	19.011	169.878	136.568	
845	305192	25.0191	31.0294	174.931	106.344	
846	309520	13.0052	24.0176	211.357	135.562	
847	302508	28.024	17.0088	178.985	106.344	
848	310180	25.0191	15.0069	194.15	129.511	
849	309634	23.0162	25.0191	179.985	138.588	
850	310621	35.0374	27.0223	177.963	138.584	
851	308765	20.0122	20.0122	194.145	148.673	
852	308676	30.0275	22.0148	179.985	146.654	
853	310055	26.0207	21.0148	177.972	151.7	
854	308303	29.0257	26.0207	168.867	109.364	
855	303686	23.0162	19.011	183.018	103.325	
856	309245	23.015	28.024	186.06	123.464	
857	307765	27.0223	22.0148	168.867	134.559	
858	307025	27.0223	29.0257	179.985	121.449	
859	310112	31.0294	27.0223	177.963	136.568	
860	308813	22.0148	15.0069	187.073	126.487	
861	304273	23.0162	30.0275	174.931	138.584	
862	308416	25.0191	26.0207	194.146	103.325	
863	309993	19.011	24.0176	195.158	121.449	
864	308971	19.011	24.0176	189.087	141.623	
865	307463	18.0099	30.0275	169.878	125.487	
866	310487	18.0099	19.011	193.134	123.464	
867	308453	26.0207	17.0088	198.194	136.568	
868	307835	15.0069	26.0207	200.218	109.372	
869	308833	20.0122	16.0078	196.17	122.456	
870	306788	13.0053	20.0122	171.914	119.442	
871	308851	22.0148	17.0088	201.231	134.551	
872	307398	14.006	20.0122	183.018	144.639	
873	307924	20.0122	28.024	183.018	136.568	
874	308172	19.011	20.0122	183.026	141.61	
875	307317	25.0181	25.0191	183.018	130.518	
876	309345	25.0179	22.0148	200.22	130.518	
877	308094	33.0333	22.0148	212.383	148.682	
878	307272	18.0099	17.0088	173.928	125.479	
879	307997	21.0134	17.0088	193.134	141.61	
880	306785	12.0043	19.011	198.194	111.378	
881	308840	20.0122	22.0148	159.777	107.351	
882	306661	19.011	16.0078	175.941	115.405	
883	302250	20.0113	14.006	170.897	131.527	
884	307384	18.0099	19.011	197.182	134.551	
885	309205	14.006	29.0257	171.908	131.535	
886	306268	14.006	17.0088	179.985	107.351	
887	308373	26.0207	28.024	188.085	144.637	
888	307377	18.0099	17.0088	206.293	132.535	
889	308084	20.0122	17.0088	188.075	100.306	
890	310233	28.024	19.011	191.117	125.479	
891	308715	16.0078	22.0148	193.141	129.516	
892	307679	19.011	20.0122	180.996	120.449	
893	308769	28.024	24.0176	204.291	130.518	
894	308159	19.011	28.024	168.867	138.584	
895	307594	17.0088	13.0052	207.306	121.456	
896	307965	19.011	19.011	201.23	125.479	
897	306463	21.0135	20.0122	194.157	132.535	
898	309654	17.0088	26.0207	170.888	122.456	
899	302622	19.0102	26.0207	174.931	129.511	
900	307450	16.0078	21.0135	212.37	127.495	
901	308203	19.011	25.0191	202.243	142.619	
902	306480	20.0122	21.0135	189.087	124.472	
903	309103	17.0088	15.0069	183.018	105.338	
904	310100	20.0122	33.0333	184.03	132.535	
905	308507	21.0134	15.0069	175.941	124.478	
906	308314	14.006	31.0294	191.101	141.61	
907	307856	19.011	25.0191	189.087	114.398	
908	306137	13.0052	17.0088	187.056	120.442	
909	308476	16.0078	20.0122	189.098	146.654	
910	299873	27.0223	21.0135	185.041	108.358	
911	305655	25.0191	18.0099	182.007	116.413	
912	306064	25.0191	26.0207	176.952	111.378	
913	304746	18.0099	23.0162	195.158	114.398	
914	307169	27.0223	17.0088	173.916	149.682	
915	306260	21.0135	19.011	200.224	117.42	
916	299634	15.0069	25.0191	161.815	110.371	
917	305629	19.011	13.0052	174.931	109.364	
918	305004	18.0099	20.0122	164.836	121.449	
919	303964	23.0162	21.0135	175.941	125.487	
920	306463	14.006	19.011	189.087	137.576	
921	304302	17.0088	27.0223	171.9	108.364	
922	303734	24.0176	24.0176	187.075	129.518	
923	307073	17.0088	20.0122	169.878	131.527	
924	307980	20.0122	19.011	176.952	116.413	
925	306998	10.0031	20.0122	187.064	100.307	
926	306398	23.0162	20.0122	186.052	124.472	
927	307069	18.0099	21.0135	196.17	116.413	
928	305784	17.0088	16.0078	177.971	106.344	
929	306000	21.0135	25.0191	194.146	124.472	
930	306359	18.0099	29.0275	179.982	120.442	
931	306062	17.0082	21.0135	192.122	114.398	
932	301688	20.0122	21.0135	167.857	114.398	
933	303236	21.0135	19.011	202.234	130.518	
934	306304	18.0098	24.0176	164.826	106.351	
935	303269	14.006	23.0162	172.902	110.371	
936	302446	14.006	17.0088	190.099	133.551	
937	303968	12.0044	17.0088	157.766	96.2824	
938	302360	21.0135	22.0148	177.963	116.413	
939	303359	16.0078	17.0088	177.963	119.434	
940	304832	14.006	15.0069	169.887	124.472	
941	299102	18.0099	23.0162	173.92	98.2943	
942	323913	13.0052	17.0088	239.738	140.602	
943	317155	18.0099	22.0148	199.204	140.602	
944	318135	14.006	15.0069	207.3	126.487	
945	322633	21.0135	19.011	218.45	134.551	
946	320622	13.0052	19.011	216.423	139.6	
947	320831	17.0088	27.0223	211.357	144.637	
948	322519	26.0207	29.0257	206.293	126.493	
949	313518	20.0122	19.011	183.029	140.602	
950	320229	23.0162	19.011	182.007	134.553	
951	316256	20.0122	24.0176	198.2	116.413	
952	316103	14.006	23.0162	194.146	160.786	
953	317630	19.011	26.0207	173.92	121.449	
954	316997	16.0078	20.0122	182.017	148.673	
955	316372	19.011	17.0088	215.41	136.576	
956	314507	16.0078	17.0088	186.052	118.427	
957	314810	20.0122	24.0176	217.436	115.405	
958	316070	22.0148	22.0148	191.122	145.645	
959	315067	17.0088	25.0191	227.587	135.559	
960	312887	22.0148	25.0191	192.122	104.331	
961	314642	20.0122	25.0191	214.397	118.432	
962	315270	20.0122	17.0088	179.985	117.423	
963	315033	17.0088	19.011	203.256	111.378	
964	314168	21.0135	32.0313	184.03	138.584	
965	316172	21.0135	18.0099	172.913	122.456	
966	310531	13.0052	25.0191	203.256	122.456	
967	314430	21.0135	22.0148	190.099	125.479	
968	315596	12.0044	22.0148	194.144	120.442	
969	314694	16.0078	32.0313	204.268	133.543	
970	315848	14.006	18.0099	226.559	134.551	
971	315064	14.006	19.011	187.075	130.518	
972	312495	15.0069	18.0099	172.909	132.535	
973	312313	17.0088	31.0294	192.122	126.487	
974	312742	18.0099	25.0191	200.218	135.559	
975	313190	13.0051	21.0135	198.19	124.472	
976	315385	16.0078	21.0135	197.182	123.464	
977	314094	21.0135	19.011	186.052	112.385	
978	313572	12.0044	25.0191	202.243	120.442	
979	313566	13.0052	22.0148	192.122	140.61	
980	314555	12.0044	13.0052	203.256	108.36	
981	313960	19.011	29.0257	217.436	149.682	
982	311036	9.00247	20.0122	215.41	100.306	
983	312920	15.0069	29.0257	190.109	130.518	
984	315911	16.0078	21.0135	187.064	106.344	
985	314289	14.006	25.0191	188.063	137.576	
986	314558	15.0069	20.0122	206.286	129.511	
987	315514	20.0122	29.0257	191.11	139.593	
988	313862	15.0069	22.0148	195.158	127.495	
989	315555	16.0078	20.0122	214.397	130.519	
990	307391	20.0122	19.011	185.039	122.457	
991	310300	20.0122	15.0069	186.052	119.436	
992	313287	11.0037	27.0223	201.242	128.503	
993	311487	15.0069	28.024	191.11	137.576	
994	313820	22.0148	23.0162	176.952	118.434	
995	315270	16.0078	23.0162	206.293	117.42	
996	315244	13.0052	17.0088	202.246	141.61	
997	313759	15.0069	30.0275	191.109	130.53	
998	314335	19.011	21.0135	196.17	124.472	
999	313707	14.006	16.0078	185.041	110.373	
1000	0	0	0	0	0	
